Time(s)	Load_(N)	Disp.(mm)	Cell_P.(kPa)	ECellP.(kPa)	SP.Vol.(mm3)	V-LDT1_(mm)	V-LDT2_(mm)	Clip-Gauge_(mm)	CH08_(V)	CH09_(V)	CH10_(V)	CH11_(V)	CH12_(V)	CH13_(V)	CH14_(V)	CH15_(V)	
0.000	0.971336	0.580886	300.923677	98.925038	4237.123350	0.001372	-0.001202	0.000916	
0.999	0.909664	0.580962	300.904739	98.873629	4236.353817	0.001679	-0.001312	0.001862	
1.999	1.113953	0.581191	300.863706	98.797634	4240.586253	0.001549	-0.001277	0.002060	
3.000	1.507112	0.579588	300.876332	98.663525	4240.714508	0.000858	-0.001157	0.001190	
4.009	1.441586	0.580657	300.822673	98.562942	4240.073230	0.001188	-0.001194	0.001907	
5.009	1.298969	0.581268	300.772171	98.520474	4234.943005	0.001710	-0.001248	0.002106	
6.002	1.541803	0.579969	300.784796	98.410952	4233.660448	0.001319	-0.001262	0.001572	
7.002	1.827036	0.578748	300.761123	98.270137	4233.019170	0.001173	-0.001132	0.001343	
8.003	9.435955	0.580580	300.759545	98.015329	4235.840794	0.001188	-0.001214	0.001678	
9.012	18.613659	0.582642	300.726403	97.691231	4239.431952	0.001817	-0.001293	0.002457	
10.014	29.190669	0.582718	300.699574	97.199496	4242.638343	0.001372	-0.001222	0.002579	
11.015	39.027489	0.587147	300.682214	96.774816	4237.892884	0.001196	-0.001137	0.001328	
12.015	47.206870	0.590660	300.619086	96.392604	4236.225561	0.001610	-0.001241	0.001755	
13.000	55.043200	0.594707	300.582787	96.068507	4231.736614	0.001603	-0.001304	0.001892	
14.009	63.141655	0.597151	300.570162	95.670614	4236.866839	0.001111	-0.001134	0.000931	
15.001	70.492313	0.600434	300.559114	95.259345	4236.353817	0.001073	-0.001181	0.001831	
16.002	78.035705	0.605092	300.461266	94.890544	4236.738583	0.001764	-0.001285	0.001007	
17.002	76.543995	0.612194	300.447063	94.651382	4233.660448	0.001426	-0.001321	0.002914	
18.002	66.433404	0.610208	300.431281	94.839135	4233.147426	0.000943	-0.001163	0.003433	
19.011	57.082234	0.609979	300.443906	95.038064	4229.043245	0.001257	-0.001192	0.001495	
20.015	45.842374	0.608605	300.382357	95.344281	4231.736614	0.001618	-0.001296	0.002609	
21.005	36.653112	0.604710	300.363418	95.518623	4231.608358	0.001395	-0.001210	0.001328	
22.005	27.787516	0.600663	300.350793	95.661673	4231.480102	0.000989	-0.001137	0.002167	
23.006	17.819630	0.598602	300.342902	95.894164	4229.043245	0.001457	-0.001261	0.000885	
24.000	8.749853	0.594784	300.260836	96.106504	4229.556268	0.001695	-0.001266	0.002167	
25.000	1.040717	0.590126	300.256101	96.245084	4229.941035	0.001257	-0.001225	0.002350	
26.000	-5.939917	0.585620	300.226115	96.347901	4231.095335	0.000943	-0.001154	0.001968	
27.001	-12.057141	0.582260	300.191395	96.437308	4231.223591	0.001503	-0.001266	0.001617	
28.001	-15.819141	0.579053	300.169300	96.334490	4231.351847	0.001702	-0.001283	0.001953	
29.012	-18.151118	0.577144	300.167722	96.072977	4233.403937	0.001058	-0.001189	0.001694	
30.014	-20.151724	0.571723	300.148784	95.717552	4230.838824	0.001234	-0.001184	0.002258	
31.015	-22.159922	0.568286	300.076187	95.357691	4230.838824	0.001526	-0.001309	0.002533	
32.015	-23.505145	0.563628	300.061983	94.928541	4232.634403	0.001518	-0.001287	0.002899	
33.015	-24.464917	0.558588	300.038310	94.389868	4232.249636	0.000973	-0.001160	0.002274	
34.012	-25.891085	0.554694	300.077765	93.882487	4227.119411	0.001288	-0.001244	0.002304	
35.000	-27.132302	0.550341	300.002012	93.430986	4225.708599	0.001687	-0.001303	0.002228	
36.000	-28.084426	0.544232	299.990964	92.912429	4225.452087	0.001257	-0.001217	0.002594	
37.001	-28.731983	0.538734	300.025685	92.375991	4225.195576	0.001019	-0.001162	0.002838	
38.001	-29.872917	0.535527	299.970448	91.879786	4224.810809	0.001388	-0.001251	0.001923	
39.002	-30.794144	0.531938	300.019372	91.455106	4222.886975	0.001710	-0.001322	0.001755	
40.015	-31.696099	0.525524	299.998855	90.918564	4225.708599	0.001204	-0.001225	0.002213	
41.015	-32.008314	0.521935	300.011481	90.391066	4229.556268	0.001073	-0.001152	0.001465	
42.000	-33.307283	0.517047	299.975183	89.950740	4227.119411	0.001503	-0.001304	0.002121	
43.000	-34.136002	0.513917	299.975183	89.459006	4224.041275	0.001533	-0.001282	0.002502	
44.014	-34.455926	0.508342	300.019372	88.940449	4227.247666	0.000989	-0.001154	0.002548	
45.002	-35.034170	0.503379	300.093547	88.446479	4227.119411	0.001134	-0.001230	0.001678	
46.002	-36.125045	0.502157	300.024107	88.006153	4223.271742	0.001518	-0.001312	0.000702	
47.003	-36.691657	0.497270	300.030419	87.541241	4224.554298	0.001533	-0.001227	0.002411	
48.003	-37.100235	0.491848	300.087234	87.042800	4226.093366	0.000805	-0.001139	0.002045	
49.015	-37.801755	0.488718	300.038310	86.542073	4224.682554	0.001480	-0.001244	0.002930	
50.015	-38.607347	0.485663	300.024107	86.115158	4223.271742	0.001825	-0.001321	0.002853	
51.005	-39.012071	0.480089	300.061983	85.643539	4224.939065	0.001234	-0.001223	0.002197	
52.005	-39.463048	0.475660	300.093547	85.102631	4223.913020	0.000789	-0.001171	0.000290	
53.006	-40.307185	0.472453	300.103016	84.677951	4223.143486	0.001487	-0.001282	0.003021	
54.000	-40.977869	0.468405	300.080922	84.244331	4222.886975	0.001695	-0.001321	0.001495	
55.015	-41.170595	0.463976	300.115642	83.739185	4221.860930	0.001188	-0.001144	0.002029	
56.016	-41.606154	0.458096	300.136158	83.258626	4220.963140	0.001058	-0.001178	0.001617	
57.019	-42.265275	0.455118	300.115642	82.820535	4219.808839	0.001510	-0.001296	0.002975	
58.019	-42.739402	0.450460	300.133002	82.395855	4221.091396	0.001487	-0.001295	0.002731	
59.019	-42.777969	0.445573	300.148784	81.870541	4224.041275	0.000881	-0.001134	0.001862	
60.030	-43.402471	0.440762	300.172457	81.427980	4224.041275	0.000989	-0.001196	0.001923	
61.031	-43.891994	0.437708	300.144049	81.039062	4220.321862	0.001764	-0.001309	0.002350	
62.015	-44.462461	0.432439	300.114064	80.618853	4220.963140	0.001211	-0.001241	0.002090	
63.021	-44.420061	0.427552	300.153518	80.167351	4222.758719	0.000966	-0.001170	0.001907	
64.022	-45.017510	0.423734	300.172457	79.827607	4220.193606	0.001556	-0.001251	0.001755	
65.016	-45.260344	0.420908	300.144049	79.385046	4219.937095	0.001672	-0.001340	0.001846	
66.016	-45.591831	0.415563	300.172457	78.958130	4220.963140	0.001157	-0.001196	0.002579	
67.017	-45.900192	0.410523	300.194552	78.508864	4220.193606	0.000966	-0.001155	0.002594	
68.017	-46.578585	0.408462	300.167722	78.115476	4218.141516	0.001464	-0.001282	0.001755	
69.018	-46.767456	0.403345	300.202443	77.739970	4218.526283	0.001457	-0.001314	0.001526	
70.030	-47.214594	0.398000	300.191395	77.268247	4220.065351	0.001127	-0.001210	0.001846	
71.030	-47.091235	0.392808	300.234006	76.830156	4221.091396	0.001157	-0.001205	0.001465	
72.031	-47.515230	0.390210	300.215068	76.514998	4219.680584	0.001587	-0.001272	0.001755	
73.031	-47.919954	0.386087	300.240319	76.148433	4222.373952	0.001464	-0.001278	0.001862	
74.047	-47.823591	0.380665	300.263992	75.694696	4223.143486	0.001035	-0.001171	0.001740	
75.063	-48.128097	0.376847	300.259258	75.321424	4219.295817	0.001042	-0.001175	0.001526	
76.063	-48.764091	0.373564	300.226115	74.950388	4219.552328	0.001510	-0.001293	0.001877	
77.064	-48.737109	0.369593	300.230850	74.568176	4217.371982	0.001326	-0.001230	0.001663	
78.064	-48.598347	0.363637	300.230850	74.156907	4219.552328	0.001027	-0.001142	0.002197	
79.064	-49.141832	0.360506	300.243476	73.792576	4216.987215	0.001349	-0.001233	0.001740	
80.078	-49.631355	0.356306	300.218224	73.468479	4214.037336	0.001718	-0.001309	0.002396	
81.081	-49.654482	0.350274	300.216646	73.072856	4217.243727	0.001250	-0.001175	0.002502	
82.081	-49.527283	0.347907	300.245054	72.724136	4219.680584	0.000966	-0.001163	0.002121	
83.081	-50.263505	0.343783	300.235585	72.406744	4217.371982	0.001388	-0.001280	0.002243	
84.082	-50.402256	0.340041	300.199286	72.013356	4216.987215	0.001633	-0.001312	0.003235	
85.078	-50.093896	0.334238	300.208755	71.635614	4220.193606	0.001181	-0.001189	0.002777	
86.079	-50.517892	0.329580	300.235585	71.271284	4221.347907	0.001181	-0.001173	0.002029	
87.083	-51.019087	0.325991	300.229272	70.927069	4217.756749	0.001733	-0.001329	0.002380	
88.084	-51.165569	0.321715	300.241897	70.578385	4215.191637	0.001326	-0.001272	0.002823	
89.084	-50.606590	0.316904	300.263992	70.191703	4216.858960	0.001119	-0.001131	0.001816	
90.093	-51.200260	0.312779	300.238741	69.854194	4217.500238	0.000989	-0.001240	0.002563	
91.093	-51.304331	0.309723	300.216646	69.512215	4217.243727	0.001649	-0.001343	0.002396	
92.094	-51.547165	0.305446	300.197708	69.205998	4216.089426	0.001234	-0.001270	0.003036	
93.100	-51.389131	0.300101	300.260836	68.790259	4216.217682	0.001050	-0.001147	0.001709	
94.101	-51.624256	0.296359	300.257679	68.486277	4217.243727	0.001380	-0.001283	0.002563	
95.101	-51.913344	0.291625	300.235585	68.193367	4215.961170	0.001610	-0.001346	0.002655	
96.095	-52.079084	0.287654	300.238741	67.860328	4217.500238	0.001250	-0.001201	0.002365	
97.095	-52.102214	0.283149	300.267148	67.516114	4217.371982	0.000851	-0.001178	0.001984	
98.096	-52.325772	0.279713	300.240319	67.236719	4217.628494	0.001449	-0.001246	0.002151	
99.102	-52.414426	0.275818	300.197708	66.914857	4217.500238	0.001603	-0.001300	0.001984	
100.108	-52.160032	0.270855	300.240319	66.599700	4218.526283	0.000935	-0.001154	0.002396	
101.109	-52.298791	0.266044	300.259258	66.282307	4219.552328	0.001142	-0.001183	0.001923	
102.104	-52.876967	0.262913	300.275039	66.009618	4214.165591	0.001779	-0.001300	0.001068	
103.104	-52.722786	0.258561	300.252945	65.725753	4215.191637	0.001457	-0.001256	0.001938	
104.105	-52.410571	0.253521	300.254523	65.341306	4219.167561	0.000866	-0.001176	0.002075	
105.094	-52.730495	0.250543	300.246632	65.028384	4216.217682	0.001096	-0.001246	0.002548	
106.094	-53.085110	0.246038	300.207177	64.786987	4217.500238	0.001610	-0.001306	0.001709	
107.094	-52.838422	0.242601	300.202443	64.500886	4220.706629	0.001242	-0.001215	0.002579	
108.095	-52.630278	0.237561	300.248210	64.183494	4219.680584	0.001050	-0.001162	0.002609	
109.105	-53.065838	0.234430	300.210333	63.933156	4216.858960	0.001480	-0.001251	0.002823	
110.108	-53.381907	0.230230	300.254523	63.696177	4218.398027	0.001510	-0.001337	0.002411	
111.111	-52.915512	0.225343	300.235585	63.347493	4218.526283	0.001188	-0.001175	0.002502	
112.111	-52.977184	0.222441	300.270305	63.054687	4216.345937	0.001027	-0.001147	0.002289	
113.112	-53.578487	0.219234	300.208755	62.844582	4214.422103	0.001342	-0.001330	0.002853	
114.121	-53.485979	0.214653	300.232428	62.554012	4215.191637	0.001518	-0.001314	0.003448	
115.122	-52.950202	0.209613	300.251367	62.245560	4217.885005	0.001058	-0.001149	0.002518	
116.122	-53.162200	0.204955	300.279774	61.961695	4218.269772	0.001004	-0.001141	0.002365	
117.122	-53.543796	0.201595	300.251367	61.722533	4216.345937	0.001464	-0.001306	0.002548	
118.122	-53.644014	0.198082	300.251367	61.474431	4216.858960	0.001457	-0.001274	0.002808	
119.122	-53.324090	0.193806	300.270305	61.170449	4216.217682	0.001081	-0.001127	0.002380	
120.124	-53.339508	0.189530	300.275039	60.917876	4214.935125	0.001227	-0.001212	0.002686	
121.125	-53.644014	0.187544	300.249788	60.689890	4212.113501	0.001626	-0.001291	0.002579	
122.125	-53.620887	0.183039	300.249788	60.417201	4212.241757	0.001380	-0.001235	0.002609	
123.125	-53.289399	0.177999	300.273461	60.140042	4216.217682	0.000927	-0.001126	0.001892	
124.139	-53.582342	0.175098	300.289243	59.932172	4215.448148	0.001349	-0.001293	0.003098	
125.139	-53.844448	0.170898	300.286087	59.670658	4214.678614	0.001641	-0.001322	0.002686	
126.126	-53.458997	0.166851	300.331854	59.389029	4216.345937	0.001288	-0.001199	0.001068	
127.127	-53.501397	0.161963	300.336589	59.165478	4218.013261	0.001088	-0.001163	0.002304	
128.127	-53.829030	0.159138	300.317651	58.975472	4215.063381	0.001572	-0.001290	0.002869	
129.139	-53.763503	0.156083	300.316073	58.693842	4212.370013	0.001464	-0.001303	0.001907	
130.140	-53.551505	0.150203	300.328698	58.421153	4213.396058	0.000981	-0.001163	0.002106	
131.140	-53.659432	0.146156	300.317651	58.164110	4216.987215	0.001296	-0.001202	0.001480	
132.125	-53.956229	0.143865	300.308182	57.992003	4215.191637	0.001695	-0.001304	0.001892	
133.126	-53.859866	0.138596	300.346058	57.770722	4213.524313	0.001342	-0.001269	0.001953	
134.140	-53.532233	0.134091	300.320807	57.489092	4214.806870	0.000973	-0.001167	0.002762	
135.127	-53.597760	0.131418	300.325542	57.278987	4212.883035	0.001349	-0.001246	0.002457	
136.128	-53.748085	0.127371	300.320807	57.122526	4214.935125	0.001848	-0.001275	0.001694	
137.128	-53.713395	0.122942	300.349215	56.856543	4214.678614	0.001134	-0.001189	0.001755	
138.128	-53.651723	0.119124	300.358684	56.592794	4214.422103	0.000958	-0.001186	0.001968	
139.126	-53.551505	0.115535	300.319229	56.413981	4212.498268	0.001526	-0.001262	0.002014	
140.139	-53.886848	0.110954	300.336589	56.246345	4211.600479	0.001495	-0.001314	0.002533	
141.130	-53.566924	0.105303	300.374466	56.002712	4213.909080	0.001050	-0.001180	0.001694	
142.130	-53.428161	0.102478	300.380778	55.770256	4213.780825	0.001073	-0.001205	0.001312	
143.130	-53.882993	0.098583	300.364997	55.575797	4212.754779	0.001618	-0.001269	0.001251	
144.131	-53.740376	0.093391	300.358684	55.350046	4213.524313	0.001556	-0.001308	0.001846	
145.141	-53.439725	0.088351	300.355527	55.155588	4215.063381	0.001073	-0.001178	0.001633	
146.141	-53.674850	0.083922	300.364997	54.929837	4211.472223	0.001242	-0.001222	0.002686	
147.149	-53.802048	0.080028	300.363418	54.766670	4212.370013	0.001733	-0.001291	0.002243	
148.149	-53.694122	0.075827	300.335011	54.560931	4213.396058	0.001342	-0.001210	0.001282	
149.149	-53.551505	0.069795	300.387091	54.310593	4216.217682	0.000920	-0.001183	0.001801	
150.171	-53.659432	0.065289	300.377622	54.136251	4215.832915	0.001357	-0.001249	0.002441	
151.187	-53.856012	0.062082	300.355527	53.946263	4215.063381	0.001679	-0.001308	0.002533	
152.187	-53.705686	0.058035	300.361840	53.754039	4211.985246	0.001104	-0.001209	0.002182	
153.187	-53.381907	0.052308	300.377622	53.517112	4215.704659	0.001065	-0.001188	0.003098	
154.187	-53.470561	0.048643	300.358684	53.353946	4213.267802	0.001365	-0.001295	0.002441	
155.187	-53.655577	0.044443	300.364997	53.157252	4213.396058	0.001480	-0.001295	0.002151	
156.190	-53.547651	0.039403	300.366575	52.980675	4213.396058	0.001012	-0.001184	0.002853	
157.191	-53.412743	0.035050	300.371309	52.777275	4214.037336	0.001019	-0.001178	0.003143	
158.191	-53.709540	0.033523	300.342902	52.618579	4210.959201	0.001533	-0.001282	0.002426	
159.189	-53.655577	0.029247	300.366575	52.424120	4213.396058	0.001372	-0.001278	0.002121	
160.202	-53.358780	0.024360	300.399717	52.202840	4214.550358	0.000805	-0.001167	0.003098	
161.208	-53.385762	0.020007	300.376044	52.050849	4213.652569	0.001357	-0.001222	0.002808	
162.209	-53.659432	0.015884	300.387091	51.910034	4209.933155	0.001656	-0.001301	0.002304	
163.209	-53.401180	0.010538	300.402873	51.740162	4213.139546	0.001334	-0.001261	0.002396	
164.209	-53.297108	0.004964	300.418655	51.525587	4216.730704	0.000720	-0.001144	0.001724	
165.210	-53.335653	0.002444	300.417077	51.357950	4216.474193	0.001418	-0.001254	0.001678	
166.210	-53.262417	-0.000611	300.376044	51.201489	4210.061411	0.001733	-0.001327	0.002701	
167.210	-53.354926	-0.006109	300.407608	51.042793	4210.317922	0.001342	-0.001189	0.002243	
168.211	-53.096674	-0.011301	300.398139	50.866215	4211.985246	0.000989	-0.001165	0.000565	
169.211	-53.374198	-0.013898	300.415499	50.718695	4211.087456	0.001480	-0.001283	0.001907	
170.217	-53.574633	-0.019090	300.402873	50.566704	4210.959201	0.001349	-0.001293	0.002350	
171.217	-53.135219	-0.022985	300.391826	50.376716	4209.676644	0.000851	-0.001194	0.001999	
172.218	-53.038856	-0.028254	300.401295	50.262723	4209.933155	0.001058	-0.001191	0.002716	
173.218	-53.651723	-0.031995	300.380778	50.099556	4211.087456	0.001526	-0.001300	0.002533	
174.218	-53.285544	-0.034668	300.368153	49.972117	4211.087456	0.001311	-0.001256	0.002518	
175.218	-53.008020	-0.040090	300.440750	49.775424	4213.524313	0.000881	-0.001157	0.002213	
176.234	-52.988747	-0.044213	300.401295	49.587670	4211.985246	0.001150	-0.001180	0.002823	
177.234	-53.208454	-0.048337	300.398139	49.531791	4215.961170	0.001626	-0.001298	0.002457	
178.235	-52.984893	-0.052613	300.376044	49.339568	4215.063381	0.001349	-0.001235	0.002655	
179.235	-52.996456	-0.057805	300.404451	49.200988	4214.806870	0.001004	-0.001154	0.002411	
180.250	-53.085110	-0.061852	300.383935	49.024411	4212.370013	0.001303	-0.001316	0.002960	
181.250	-53.108237	-0.065518	300.371309	48.901477	4213.780825	0.001679	-0.001306	0.001923	
182.253	-52.927075	-0.069947	300.399717	48.740546	4214.293847	0.001196	-0.001212	0.002319	
183.253	-52.668823	-0.075216	300.434437	48.568438	4214.550358	0.001088	-0.001145	0.002319	
184.254	-52.984893	-0.079572	300.434437	48.443270	4213.011291	0.001495	-0.001275	0.002151	
185.254	-53.085110	-0.083466	300.429703	48.353863	4213.652569	0.001687	-0.001317	0.002060	
186.254	-52.595588	-0.088430	300.451797	48.152699	4212.370013	0.001134	-0.001214	0.001709	
187.255	-52.691950	-0.093775	300.445484	48.016355	4212.241757	0.001065	-0.001154	0.001419	
188.255	-53.042711	-0.096524	300.437593	47.888951	4213.139546	0.001679	-0.001306	0.002045	
189.255	-52.934784	-0.100724	300.429703	47.799544	4213.524313	0.001595	-0.001256	0.002625	
190.265	-52.564752	-0.105916	300.445484	47.625202	4214.165591	0.001119	-0.001165	0.001404	
191.256	-52.691950	-0.109200	300.453375	47.506739	4213.267802	0.001173	-0.001207	0.001587	
192.256	-52.961766	-0.112941	300.424968	47.386040	4212.626524	0.001656	-0.001334	0.002945	
193.256	-52.657260	-0.117829	300.415499	47.240755	4214.550358	0.001257	-0.001205	0.002472	
194.251	-52.425989	-0.121876	300.431281	47.099940	4214.422103	0.000973	-0.001183	0.002274	
195.252	-52.776750	-0.125923	300.418655	46.999358	4210.061411	0.001265	-0.001278	0.003036	
196.252	-52.838422	-0.129588	300.387091	46.885365	4210.702689	0.001533	-0.001334	0.002823	
197.252	-52.445262	-0.134552	300.415499	46.715493	4211.343967	0.001019	-0.001227	0.002441	
198.252	-52.395153	-0.138522	300.450219	46.594794	4209.676644	0.001127	-0.001181	0.003036	
199.258	-52.611006	-0.141042	300.434437	46.512093	4208.394088	0.001510	-0.001335	0.002762	
200.253	-52.622569	-0.146082	300.428124	46.371279	4208.650599	0.001549	-0.001303	0.002441	
201.253	-52.225555	-0.151198	300.450219	46.217053	4209.676644	0.000935	-0.001192	0.002213	
202.253	-52.267955	-0.155475	300.437593	46.138822	4210.317922	0.001012	-0.001207	0.002716	
203.254	-52.464534	-0.157842	300.432859	46.047181	4206.213742	0.001564	-0.001322	0.002762	
204.259	-52.368172	-0.163264	300.432859	45.926482	4206.983276	0.001457	-0.001272	0.001694	
205.259	-52.028979	-0.168686	300.495987	45.783432	4210.830945	0.000996	-0.001212	0.001404	
206.255	-52.271809	-0.170595	300.483361	45.658263	4210.446178	0.001403	-0.001231	0.001831	
207.256	-52.607151	-0.175176	300.456532	45.591209	4208.009321	0.001518	-0.001311	0.001984	
208.256	-52.237118	-0.180827	300.483361	45.448106	4208.778855	0.001150	-0.001217	0.001511	
209.259	-51.901769	-0.184569	300.489674	45.300533	4209.804900	0.000989	-0.001170	0.001205	
210.265	-52.314209	-0.187547	300.464423	45.226773	4208.778855	0.001556	-0.001291	0.002457	
211.250	-52.526207	-0.191976	300.437593	45.161953	4210.446178	0.001526	-0.001300	0.003204	
212.250	-52.055957	-0.199230	300.461266	45.007728	4211.343967	0.001111	-0.001196	0.002045	
213.251	-52.086796	-0.203048	300.475470	44.893735	4210.830945	0.000966	-0.001209	0.002396	
214.260	-52.391299	-0.206026	300.462845	44.815504	4210.446178	0.001649	-0.001275	0.001862	
215.252	-52.425989	-0.210150	300.448641	44.717157	4211.856990	0.001556	-0.001280	0.002136	
216.252	-51.890217	-0.215648	300.492830	44.589753	4212.113501	0.001196	-0.001189	0.003159	
217.252	-52.079087	-0.219847	300.488096	44.486936	4209.035366	0.001227	-0.001201	0.002014	
